t(s),r(m),v (m/s),FPA (rad),Longitude (rad),Latitude (rad),Heading angle (rad),Heat transfer (W/m2),Heat load (J/m2)
0,3514500,6051.6429987878,-0.168413800841941,0.0101194190030631,0.601964059012844,-0.318348055563766,3371.32252851707,0
2.74756451555627,3511740.15043735,6053.22066998381,-0.164988837268529,0.0154928772203301,0.600495716359371,-0.321590842214421,4141.7553837178,10247.0051379548
5.49512903111254,3509036.40865889,6054.76181840433,-0.161559202799911,0.0208633815941585,0.599010779779036,-0.32482501377803,5114.84805824558,23462.5107874021
8.24269354666881,3506389.08140012,6056.26789152861,-0.158124914810616,0.0262310280430586,0.597509288749007,-0.328050642847284,6269.96666232829,39249.5042793277
10.9902580622251,3503796.03411426,6057.73986442895,-0.154685955946644,0.03159578431282,0.595990908741117,-0.331267742606325,7684.36761871325,58850.0187498913
13.7378225777813,3501260.45167385,6059.16372308463,-0.151242239396401,0.0369569468740375,0.594456212915135,-0.334475679696325,9321.41635612129,82243.1796295379
16.4853870933376,3498779.73497485,6060.54699089212,-0.147793830001393,0.0423146179020119,0.592904820857165,-0.33767458437246,11259.9309677231,111023.219089597
19.2329516088939,3496355.90815544,6061.8687250698,-0.144340418694987,0.047668274087067,0.591337087078149,-0.340864003311201,13476.3723871099,145233.432413797
21.9805161244501,3493986.51417366,6063.13843633519,-0.140882260307455,0.05301790127092,0.589753562132303,-0.344044145128747,15989.352653033,185761.302155624
24.7280806400064,3491674.6400209,6064.32835024299,-0.13741858219324,0.0583629743552789,0.588153186096701,-0.347214221431401,18841.346394564,234173.436685276
27.4756451555627,3489427.93770441,6065.38618754866,-0.133948054800253,0.0637023762695811,0.586535223041439,-0.350372812689437,21991.5948820458,290885.550668018
30.223209671119,3487229.62166808,6066.39837626097,-0.130472344694527,0.0690375207596522,0.584902392795518,-0.3535224291954,25471.4651956681,357445.650906551
32.9707741866752,3485086.1396035,6067.25797037447,-0.126990268642448,0.0743674201464687,0.583254382184245,-0.356661924830393,29251.0698698763,433407.261018378
35.7183387022315,3483005.4476843,6067.86239754294,-0.123500583427332,0.0796909623702967,0.581590455963372,-0.359789881739979,33300.2718379152,518559.921767286
38.4659032177878,3480979.72187947,6068.38060283276,-0.120004719956723,0.0850088988326238,0.579910038569835,-0.362907070187925,37682.8396104417,617077.092518303
41.213467733344,3479010.48185165,6068.76931654116,-0.116500768157508,0.0903205485906157,0.578213797441772,-0.366013099699352,42424.2809918721,728889.584322136
43.9610322489003,3477103.47384413,6068.90034244244,-0.112985799457228,0.0956246740206367,0.576502596765227,-0.36910701809332,47527.9315006298,852456.604076801
46.7085967644566,3475253.09552047,6068.63549589339,-0.109461742519059,0.100921847411533,0.574775850523034,-0.372189289530744,53039.1764217976,991222.513450644
49.4561612800128,3473458.23325769,6068.02548304391,-0.105926959911297,0.106211712661277,0.573033569326712,-0.375259741801463,59016.8201520062,1147254.81030841
52.2037257955691,3471725.79937793,6067.19709191507,-0.102375765202932,0.111492554352695,0.571276797994862,-0.378317172605965,65501.1434218271,1319317.40819522
54.9512903111254,3470058.09040184,6065.88082664766,-0.0988058802520752,0.116763492446152,0.569504937597203,-0.381360670118535,72643.231396384,1510598.02124439
57.6988548266816,3468447.58204081,6063.64408131919,-0.0952194092924337,0.122025302139928,0.567717536871642,-0.384390953962218,80510.0806181777,1725240.13272622
60.4464193422379,3466889.73946688,6060.8152936482,-0.0916141210180111,0.127278126992673,0.565917912627741,-0.38740930728635,88859.6981046786,1958249.91907799
63.1939838577942,3465388.67527136,6057.39726119173,-0.0879850897369566,0.132520569051606,0.564106320853481,-0.390414672706912,97614.8657944478,2210556.88638396
65.9415483733504,3463960.46465054,6052.74824294627,-0.0843234011996779,0.137748842274675,0.562278162251742,-0.39340243923167,107025.290255103,2493352.37392394
68.6891128889067,3462590.5485153,6047.01782139595,-0.0806308118868315,0.142964656121295,0.560437899631987,-0.396375739067168,116912.040468635,2801294.78404358
71.436677404463,3461284.06748792,6040.02529472357,-0.0769013035684055,0.14816593478065,0.558585300647043,-0.399332935227057,127093.747858747,3136475.69432802
74.1842419200192,3460041.42811074,6031.59413829974,-0.0731314349927866,0.153351444566249,0.556720891167619,-0.402273377975611,137446.247367336,3499745.5655406
76.9318064355755,3458862.57506083,6021.53108083984,-0.0693179310593167,0.158519988721546,0.554845192608357,-0.40519644876478,147844.611777509,3891866.95398762
79.6793709511318,3457749.35729816,6009.7437527889,-0.0654572969104697,0.163669764446569,0.552959023957196,-0.408101185440726,158107.660219603,4312172.43683664
82.4269354666881,3456703.04234976,5996.10281742867,-0.061546726006213,0.168798983641256,0.551063197119126,-0.410986666539925,168162.740323844,4760132.62349081
85.1744999822443,3455723.48820029,5980.44844305325,-0.0575843125351155,0.173906157355717,0.549158403458547,-0.413852155918064,177908.305821108,5235484.65271308
87.9220644978006,3454811.36645942,5962.68788220657,-0.0535683935694961,0.178989472233892,0.547245505091403,-0.416696742885028,187218.837015494,5737204.61381199
90.6696290133569,3453969.09739359,5942.85736194257,-0.0495002393361524,0.184046701072223,0.545325592894466,-0.419519308333596,195709.973001845,6262828.29604648
93.4171935289131,3453196.67279886,5920.90852946389,-0.0453814212393831,0.189076139143466,0.543399456061525,-0.422319012595617,203353.302784728,6810776.01281487
96.1647580444694,3452492.7959152,5896.85101462215,-0.0412142974623097,0.194076343611072,0.54146795014193,-0.425095232315232,210174.831669216,7378926.86346968
98.9123225600257,3451860.82304578,5870.83230732889,-0.0370037455261703,0.199044881793537,0.539532265859433,-0.427846747656241,215982.874531715,7963970.30164702
101.659887075582,3451300.46670176,5842.94631515227,-0.032755281286047,0.20398030264393,0.537593239684871,-0.430572919697687,220691.725567815,8563376.85522578
104.407451591138,3450809.19704137,5813.29927462499,-0.0284741772036634,0.208881360860417,0.535651624858442,-0.433273224762713,224332.209957561,9174701.54075549
107.155016106694,3450390.33359779,5782.15965405497,-0.0241700410077526,0.213745971286048,0.533708458794514,-0.43594662325902,226802.747682604,9794034.62720085
109.902580622251,3450041.49491642,5749.78946664187,-0.0198523546115647,0.218574251683185,0.531764485760026,-0.438593549625425,227901.470251157,10418341.3247832
112.650145137807,3449763.58969266,5716.38516208152,-0.0155300053922056,0.223363657077444,0.529820346130507,-0.441212477055145,228113.858656675,11044820.3563917
115.397709653363,3449553.63931277,5682.28231522771,-0.0112142889813926,0.228114516600615,0.527876690603936,-0.443803933247364,227069.735051444,11670065.3194307
118.14527416892,3449410.18565057,5647.78481269857,-0.00691645947873131,0.23282609500801,0.525934050610118,-0.446367620021798,224940.336334801,12291009.5285737
120.892838684476,3449337.79967488,5613.20665678918,-0.00264783505949832,0.23749829004575,0.523992841368379,-0.448903631529712,221870.033453585,12904747.8360875
123.640403200032,3449335.97252646,5578.84037619008,0.00158081646694091,0.242130874247966,0.522053367976363,-0.451411920491762,217935.876143055,13508704.7103951
126.387967715588,3449382.71892349,5544.95005508269,0.00576056329474565,0.246724702921672,0.520115791209518,-0.45389314886291,213241.860587165,14100883.0289619
129.135532231145,3449505.38068318,5511.77870424778,0.00988256932529888,0.251279959938767,0.518180229825698,-0.456347474575735,207870.103027608,14679382.7216929
131.883096746701,3449685.74218521,5479.57718034698,0.0139380848264069,0.255797468706687,0.516246696348409,-0.458775443846538,201906.402010957,15242308.6868768
134.630661262257,3449924.12344068,5448.5555776808,0.017920009756096,0.260278227523582,0.514315086716681,-0.46117767103474,195477.714054246,15788116.1326948
137.378225777813,3450220.44302834,5418.87181087159,0.0218230962083276,0.264723242418511,0.512385235737885,-0.463554755959417,188675.713559161,16315716.0885713
140.12579029337,3450573.24652115,5390.64150184635,0.0256437142770491,0.269133779518262,0.510456922333796,-0.465907459539984,181588.344094139,16824366.657929
142.873354808926,3450980.36719189,5363.96602724641,0.0293787072372549,0.273511053186758,0.50852986640861,-0.46823646500743,174298.34806312,17313341.9687143
145.620919324482,3451438.87487129,5338.9347912314,0.0330260952932823,0.277856567316026,0.506603692595872,-0.470542599688655,166886.680758888,17782010.2017364
148.368483840038,3451947.93462098,5315.57037597578,0.0365859642610906,0.282171685333169,0.50467805000105,-0.472826625181482,159412.000201077,18230217.2521511
151.116048355595,3452506.50150104,5293.87415587494,0.0400589791719649,0.286457686787954,0.502752573602499,-0.475089234787895,151927.62265908,18657900.0107729
153.863612871151,3453112.97903101,5273.81951956223,0.0434470094722798,0.29071603258425,0.500826875481158,-0.477331241613252,144481.225851796,19065212.6124449
156.611177386707,3453765.05121007,5255.40016963242,0.0467522997054107,0.294948215875147,0.498900483714632,-0.479553409776031,137125.698572737,19452083.7891756
159.358741902264,3454461.84809786,5238.55933896133,0.049978031298608,0.299155523032026,0.496973014195065,-0.481756428489676,129841.973720882,19818780.4534426
162.10630641782,3455202.50871863,5223.22542995423,0.0531276096955217,0.303339169693591,0.495044104662421,-0.483940952949593,122642.806431132,20165676.0581522
164.853870933376,3455985.63704629,5209.32015481205,0.0562050595946581,0.307500504839361,0.493113393816687,-0.486107733607131,115577.111051151,20493220.7481457
167.601435448932,3456810.95621918,5196.83978822031,0.0592125402524694,0.311640080232015,0.491180346569014,-0.488256789453902,108717.043625222,20800938.6691123
170.348999964489,3457675.37353049,5185.57983376942,0.0621592517364007,0.315760262595131,0.489244830272361,-0.490389785317541,102060.277892477,21090819.6269178
173.096564480045,3458580.37050168,5175.50627886334,0.0650460535451209,0.319860929422441,0.487306425853879,-0.492506350022056,95635.7704019645,21362610.608477
175.844128995601,3459523.62803735,5166.53536914082,0.0678796846464084,0.323943528614585,0.485364793074056,-0.494607274937558,89411.6983500093,21616749.7614258
178.591693511157,3460505.90573454,5158.53397577515,0.0706630490563261,0.328008561657005,0.483419786017743,-0.496692872569215,83375.044998906,21854398.1429524
181.339258026714,3461524.77884141,5151.45192986351,0.0734026397774926,0.332057261411948,0.481471059766242,-0.498763745283888,77589.7699285706,22075597.4833737
184.08682254227,3462581.52296946,5145.17509864929,0.076100784684478,0.336089779783553,0.479518447016175,-0.500819918589279,72059.0933852717,22281306.041888
186.834387057826,3463674.7990937,5139.63408236109,0.0787626922405332,0.340106980796659,0.477561715909588,-0.502861831007811,66795.1993085849,22472042.921258
189.581951573383,3464803.5390129,5134.71598700616,0.0813929223835043,0.344109684813179,0.475600855838475,-0.504890063426805,61811.4093963213,22649028.6528527
192.329516088939,3465968.42567615,5130.36854102401,0.0839940634598709,0.348097980639742,0.473635611787276,-0.506904495088061,57141.9042946545,22812653.2835209
195.077080604495,3467168.56381243,5126.50900823782,0.0865701272867715,0.352072419106765,0.471665933493323,-0.508905447285052,52743.8661889714,22963711.3336704
197.824645120051,3468404.09234803,5123.07535388455,0.0891236281319222,0.356033339492846,0.469691733262509,-0.510893122165547,48571.0298379942,23103090.825764
200.572209635608,3469674.0486609,5120.00175549041,0.0916581792526149,0.359981133647336,0.467712981931137,-0.512867708436092,44700.8133585593,23231416.1845409
203.319774151164,3470977.66862715,5117.23020900374,0.0941757888772428,0.363916524539217,0.465729820385357,-0.514829896237015,41141.103341725,23350033.955194
206.06733866672,3472319.58134837,5114.74221423401,0.0966778792731514,0.367837531751214,0.463741427571718,-0.516777437788653,37873.2882270119,23457850.897229
208.814903182276,3473694.70802055,5112.46239507353,0.0991673583803292,0.371746664617956,0.461748637276866,-0.518712944801574,34818.9345588601,23557836.8989041
211.562467697833,3475101.31461781,5110.34951481329,0.101646170039361,0.375644479588133,0.459751661815042,-0.520636901253229,31954.5746850531,23650608.2812768
214.310032213389,3476541.1870722,5108.38954384704,0.104115958405575,0.379529766254131,0.457750058673578,-0.522547845885999,29294.196178517,23734968.3036803
217.057596728945,3478016.90260865,5106.57619810397,0.106575777410152,0.383402579999192,0.455743752929441,-0.52444601118712,26819.5410881678,23812441.4699666
219.805161244501,3479527.02770061,5104.87792925917,0.109027053760246,0.387263304117165,0.453732943854087,-0.526331730605566,24502.2449708883,23883480.6954483
222.552725760058,3481069.19235534,5103.2571327351,0.111472299714606,0.39111207942307,0.451717790348943,-0.528204948481645,22319.3887138966,23947682.7645339
225.300290275614,3482645.83275278,5101.71837019417,0.113910867408416,0.394948968486465,0.449698185752522,-0.530065880040449,20251.9813772448,24006443.2334935
228.04785479117,3484256.51676921,5100.24506684022,0.116343357546811,0.398773992949275,0.447674236129516,-0.531914528841856,18304.5931430773,24059921.0037303
230.795419306727,3485899.08865837,5098.80640497527,0.11877139669451,0.402587190998917,0.445646151493788,-0.533750796734449,16484.7282987608,24107601.1612397
233.542983822283,3487575.70799268,5097.40892590348,0.12119462028698,0.406388686761663,0.443613821506119,-0.53557494333951,14767.4402483409,24150780.4419595
236.290548337839,3489286.12467901,5096.04370150587,0.123613315279809,0.410178416478864,0.441577350247413,-0.53738690403062,13161.3219402758,24189639.7747978
239.038112853395,3491028.54500519,5094.6895613527,0.126028395369396,0.413956265924227,0.439536962714105,-0.539186470478838,11689.0531582363,24223695.1262215
241.785677368952,3492804.68178354,5093.3525682375,0.128439659868277,0.417722483141391,0.437492580079979,-0.540974023888169,10320.3535693804,24254135.7474227
244.533241884508,3494614.17897314,5092.02659381866,0.130847325702126,0.421477068493081,0.435444324244384,-0.542749572557969,9058.33931954031,24281225.1148334
247.280806400064,3496455.34635426,5090.69581945863,0.13325198848122,0.425219872437098,0.433392436419101,-0.544512889402521,7926.89086135315,24304591.5609038
250.02837091562,3498330.00607615,5089.36323496775,0.135653556335524,0.428951000658842,0.431336803251431,-0.546264194029168,6897.73550456344,24325117.27105
252.775935431177,3500238.07509983,5088.02715127477,0.138052077922968,0.432670468438415,0.429277524077094,-0.548003530283292,5965.2402502734,24343169.556108
255.523499946733,3502177.69151955,5086.67787073122,0.140447886133852,0.436378175483569,0.427214883337122,-0.549730734694454,5148.59234043984,24358524.4641645
258.271064462289,3504150.31400092,5085.31575869158,0.142840980332131,0.44007422037418,0.425148796896365,-0.551446005957749,4422.88838298469,24371785.8078026
261.018628977845,3506156.2020812,5083.94094382035,0.145231338946768,0.443758618292412,0.423079324633915,-0.553149402975773,3776.96732177772,24383337.0560474
263.766193493402,3508193.56130143,5082.54850236522,0.147619097799172,0.447431257419964,0.421006758531722,-0.554840757678406,3226.15506784745,24393077.350825
266.513758008958,3510263.14497232,5081.13681420187,0.150004294284544,0.451092196949052,0.418931154383458,-0.556520222514965,2748.67141561993,24401495.4882162
269.261322524514,3512365.88036648,5079.7072539488,0.1523868881696,0.454741498547424,0.416852417894659,-0.558187910314221,2331.7283481229,24408785.2188492
272.008887040071,3514501,5078.26015112619,0.154766875183554,0.458379106298741,0.414770556130672,-0.559843695101035,1992.01725332323,24414608.5148362
