t(s),r(m),v (m/s),FPA (rad),Longitude (rad),Latitude (rad),Heading angle (rad),Heat transfer (W/m2),Heat load (J/m2)
0,3514500,6051.6429987878,-0.168413800841941,0.0101194190030631,0.601964059012844,-0.318348055563766,2505.13907959819,0
2.86764086714631,3511620.81515579,6053.27360737495,-0.164838551343279,0.0157276338581757,0.600431168950981,-0.321732358857862,3106.39850852362,8002.54304827324
5.73528173429262,3508802.86679432,6054.84831039059,-0.161257732122755,0.0213326013768953,0.59888022424769,-0.325107259394181,3869.47272443164,18373.8348495692
8.60292260143893,3506046.08088301,6056.37471917591,-0.157671503249999,0.0269344609642178,0.597311199598517,-0.328472869118687,4786.04672782689,30911.0497628362
11.4705634685852,3503348.79526127,6057.84640353747,-0.154079663215018,0.0325330495229553,0.595723848622343,-0.331829089529098,5910.72991402771,46559.3836992718
14.3382043357315,3500714.16293866,6059.22319045601,-0.150481421332573,0.0381275941466752,0.59411875369959,-0.335175246362941,7219.78529583112,65411.1997273344
17.2058452028779,3498139.17117763,6060.52744552568,-0.146876969955734,0.0437182322707991,0.592495467782066,-0.338511504012014,8778.93999444864,88783.8516831087
20.0734860700242,3495627.20457282,6061.66093896176,-0.143264515001235,0.0493041016353573,0.590854614041779,-0.341837154012492,10552.1501712676,116502.645451951
22.9411269371705,3493175.06630257,6062.72197272622,-0.139644579597441,0.0548853484635972,0.589195987711727,-0.345152404511351,12593.6795256948,150082.087248459
25.8087678043168,3490787.21564573,6063.4357161726,-0.136014080386785,0.0604609430420685,0.587519545248309,-0.348456270330885,14880.415519873,189684.989860479
28.6764086714631,3488461.7120001,6063.80024296098,-0.132372552551155,0.0660307505809451,0.585825622702391,-0.351748799941084,17418.8401420649,236338.449936358
31.5440495386094,3486196.50531955,6064.02687267941,-0.128718846271589,0.0715945312329574,0.584114638299727,-0.35503003195424,20218.5875060699,290845.924993524
34.4116904057557,3483997.30554138,6063.91675618268,-0.125048925184597,0.0771509754957347,0.58238675294039,-0.358298781003199,23232.723978373,352896.588876621
37.279331272902,3481858.94675499,6063.0913068843,-0.12136423683815,0.0827005553137002,0.580641493071579,-0.361555492873118,26509.7528843544,424957.640682201
40.1469721400483,3479787.03908651,6061.86624897065,-0.117657025375686,0.0882412849651612,0.578879950208741,-0.364798858370422,30026.9629135159,506064.110729402
43.0146130071946,3477778.70808537,6059.82066571767,-0.113927851941614,0.0937733059390369,0.577101893909049,-0.368028998566312,33792.7696497598,597881.076724701
45.8822538743409,3475834.9469295,6056.77277198266,-0.110171135592231,0.0992953874548236,0.575307754163853,-0.371245207003158,37846.7503790662,701305.815756659
48.7498947414873,3473962.78908929,6052.82997375883,-0.106375943934188,0.104804873744887,0.573498200206268,-0.374445612562605,42225.9924221803,816389.004719326
51.6175356086336,3472156.30922719,6047.28718684547,-0.102544438672512,0.110302459824729,0.571672625898286,-0.377630734119576,46972.1772801755,945914.671225445
54.4851764757799,3470407.92468726,6040.58452865939,-0.0986730317038277,0.115788103978398,0.569835264852697,-0.380802147072017,52051.8616718669,1086480.96337335
57.3528173429262,3468738.16911677,6031.72574304763,-0.0947405330107279,0.121256222161538,0.567981980344944,-0.383954115059181,57648.6289116661,1244221.13238192
60.2204582100725,3467137.62975854,6020.63386027492,-0.0907428617634416,0.126706941716642,0.566116124819914,-0.387088170475104,63609.3443443273,1418092.39685373
63.0880990772188,3465609.68104114,6006.84545997956,-0.0866678608557319,0.132137504467625,0.564238247507491,-0.390202600007623,69774.9720455289,1609352.75019518
65.9557399443651,3464156.17609284,5989.94980957278,-0.082504515785293,0.137545157046762,0.562349471066107,-0.393295950579762,76090.1951665379,1818509.83002814
68.8233808115114,3462779.14050856,5969.50311053258,-0.0782408947079442,0.142926802255247,0.5604510758285,-0.396366606208978,82534.1744365004,2045961.95631845
71.6910216786577,3461480.83100595,5945.05786008603,-0.0738650592473296,0.148278900517792,0.558544544772503,-0.399412740910528,88878.1114433772,2291745.3130452
74.558662545804,3460263.56616536,5916.24713450791,-0.0693677605093738,0.153597602165302,0.556631522056875,-0.402432392539103,94987.0651895577,2555376.6633659
77.4263034129503,3459129.93724503,5882.76209913646,-0.0647415790505046,0.158878676583915,0.554713791244287,-0.405423401964559,100659.172804824,2835926.85048653
80.2939442800967,3458081.63353607,5844.46694903623,-0.0599842191967014,0.164118119100281,0.552793316059424,-0.408383858168003,105722.592922985,3131793.08271965
83.161585147243,3457121.17433554,5801.23920163709,-0.0550948422520672,0.169311271520421,0.550872041245778,-0.41131139175097,110106.836251898,3441290.50676562
86.0292260143893,3456250.00097964,5753.14327264692,-0.0500775630793408,0.174453925038018,0.548952020056374,-0.414204001314764,113700.782048214,3762263.87318105
88.8968668815356,3455469.73001386,5700.37525007383,-0.0449405440406387,0.179541746755455,0.547035328148957,-0.41705961145534,116406.41485567,4092276.85598801
91.7645077486819,3454781.21620884,5643.31117826553,-0.039697745243673,0.184570849421026,0.545123984246429,-0.419876437053788,118179.98977201,4428658.79367699
94.6321486158282,3454185.0401248,5582.48001934574,-0.0343684297394669,0.189537599096826,0.543219896677968,-0.42265282086653,118878.068682163,4768580.94853778
97.4997894829745,3453681.04124925,5518.55220746423,-0.028976671623407,0.194439047143368,0.541324779811699,-0.425387495920098,118608.699610835,5109117.72476462
100.367430350121,3453268.12658434,5452.2689625827,-0.0235491271079773,0.199272899817764,0.539440116355639,-0.428079546397621,117464.653007992,5447609.45007384
103.235071217267,3452944.51898039,5384.40846131885,-0.0181139190838734,0.20403755520391,0.53756714494449,-0.430728425390077,115504.118720176,5781652.87725252
106.102712084413,3452708.03233419,5315.77057061331,-0.0127003092642841,0.208732080412291,0.535706847300753,-0.433333931610143,112839.156162648,6109073.78927455
108.97035295156,3452555.49216454,5247.13956987048,-0.00733743079838379,0.213356308092747,0.533859913503986,-0.435896260958946,109584.345856327,6428019.209706
111.837993818706,3452487.76774633,5179.26224067525,-0.00205362501983077,0.21791065169805,0.532026773821143,-0.438415890924241,105860.177437571,6736955.33112406
114.705634685852,3452495.88643978,5112.81114132429,0.00312514284651079,0.222396296783453,0.530207559441358,-0.440893696219503,101785.098634201,7034705.48003196
117.573275552999,3452576.58173617,5048.36313824066,0.00817613519437878,0.22681494206693,0.528402163860739,-0.443330795858835,97468.1518084819,7320424.78126243
120.440916420145,3452729.62467914,4986.40541719784,0.0130795567419989,0.231168564273846,0.526610300826662,-0.445728414672156,93006.2633709011,7593523.67348412
123.308557287291,3452949.13370873,4927.30742000206,0.0178202963429027,0.235459874069886,0.524831418922042,-0.448088165028425,88483.1065787595,7853745.16413405
126.176198154438,3453231.48280729,4871.34997139212,0.0223865328756546,0.239691591190364,0.523064875799624,-0.450411618791441,83968.4173506472,8101001.60511124
129.043839021584,3453572.97919942,4818.71829311979,0.0267703383774964,0.243866661283976,0.521309906941479,-0.452700446318199,79515.1663469725,8335392.06767926
131.91147988873,3453969.92917662,4769.50378123325,0.0309677752973915,0.247988258819973,0.519565636535815,-0.454956424611537,75166.7748383159,8557182.17891709
134.779120755877,3454418.81092355,4723.74943213284,0.034977032125148,0.252059468961329,0.517831152013197,-0.457181246803194,70951.0240380514,8766686.95954018
137.646761623023,3454916.27995737,4681.44006390823,0.0387990722067179,0.256083480666903,0.516105488000628,-0.459376653934834,66856.4432226256,8964281.39595091
140.514402490169,3455459.4411058,4642.53741338357,0.0424358738386266,0.260063183851297,0.514387702899674,-0.461544183555669,62924.5725141076,9150313.11705348
143.382043357315,3456045.17816564,4606.87976368962,0.0458953585562995,0.264002030098831,0.512676769342979,-0.463685740096157,59170.796382117,9325451.2179021
146.249684224462,3456670.93116101,4574.36586051212,0.0491828330289512,0.267902564811399,0.510971758270117,-0.465802616409961,55600.2562131415,9490038.4586569
149.117325091608,3457334.17880751,4544.81556422531,0.0523075936199935,0.271767680112929,0.509271721208824,-0.467896351717246,52211.0439634784,9644633.95830271
151.984965958754,3458032.85237298,4518.04218064678,0.0552790938931941,0.275599911748923,0.507575799984576,-0.469968279249782,48998.6324650884,9789762.44512277
154.852606825901,3458765.07859092,4493.85432226033,0.0581070898765317,0.279401588287781,0.505883184728013,-0.472019609132185,45958.8625205596,9925921.29852615
157.720247693047,3459529.06469399,4472.05432460736,0.0608018002590851,0.283174955970869,0.504193107372288,-0.474051517025595,43079.3266886463,10053605.7856341
160.587888560193,3460323.23860157,4452.47007662867,0.0633723811217348,0.286922027750632,0.502504849627242,-0.476065035898804,40326.8026674769,10173225.9743486
163.45552942734,3461145.95392526,4434.94123371746,0.0658282395728354,0.29064481469745,0.50081769558092,-0.478061193439785,37728.7728455262,10285163.1893926
166.323170294486,3461995.89985548,4419.28059152116,0.0681794162617619,0.29434508845702,0.499131038167445,-0.480040911346847,35277.423976952,10389872.935993
169.190811161632,3462872.28807195,4405.33105909235,0.0704343072389386,0.298024151467018,0.497444315172349,-0.482004789290854,32966.269860088,10487687.8113014
172.058452028779,3463773.69381172,4392.88795170278,0.0726036684212935,0.30168376547272,0.495757048627268,-0.483953824708943,30787.4249664258,10579145.146774
174.926092895925,3464699.62057871,4381.8138457575,0.0746946488146232,0.305324896073359,0.494068790667005,-0.485888440853293,28741.0851925092,10664535.9499633
177.793733763071,3465648.94253904,4371.96374956302,0.0767163781824674,0.308948898469067,0.49237908003473,-0.487809327150104,26832.6473837751,10744241.009306
180.661374630217,3466620.82587849,4363.18887681307,0.078676534389259,0.312556885290918,0.490687615376392,-0.489717108052371,25036.8270572158,10818678.0372815
183.529015497364,3467615.7410419,4355.41358115474,0.0805791856279777,0.316149028728653,0.488993969706818,-0.491611616700283,23347.6600236839,10887943.6799801
186.39665636451,3468632.00495101,4348.4736945708,0.0824325005506506,0.319726936210735,0.487298051977081,-0.49349399804457,21752.04887207,10952681.4203441
189.264297231656,3469668.7633703,4342.28103328521,0.0842440253686299,0.323291467186928,0.485599512852103,-0.495364603993643,20269.0650286534,11013058.7299031
192.131938098803,3470727.05150263,4336.75556093808,0.0860146580214742,0.326842398987525,0.483898194448518,-0.497223205054284,18898.506147668,11069304.0908259
194.999578965949,3471805.4446611,4331.80542499879,0.0877526550486546,0.330380841834045,0.482193848275555,-0.499070385243941,17627.8906624819,11121714.0737708
197.867219833095,3472904.30733495,4327.3477469328,0.0894597290628618,0.333906970272286,0.480486426391943,-0.500906289194718,16448.3515932087,11170650.6303906
200.734860700242,3474022.56125422,4323.32567953146,0.0911417191223118,0.337421550545707,0.478775748442693,-0.502731282380486,15336.5547125612,11216253.7344812
203.602501567388,3475160.64764264,4319.67948094715,0.0927995334464356,0.340924665932945,0.477061783066551,-0.504545454803342,14286.2689449815,11258833.5762243
206.470142434534,3476318.83708172,4316.38835173842,0.0944366738771818,0.344416203474706,0.475344181457358,-0.506348377479093,13309.3647683239,11298301.7537672
209.337783301681,3477495.56652784,4313.37202437404,0.0960553390185627,0.347897403087667,0.473623327916962,-0.508141324505613,12391.8398312621,11335290.7425359
212.205424168827,3478690.92177656,4310.61252846039,0.097658738223799,0.351368134099582,0.471898937627008,-0.509923863191135,11522.7231840613,11369614.3791062
215.073065035973,3479905.70541076,4308.08310794735,0.0992467107632896,0.354828295351536,0.470170948237418,-0.511695957713105,10696.5657973172,11401545.2900439
217.940705903119,3481139.19802498,4305.75007355474,0.10082175127369,0.35827827592581,0.468439382139509,-0.513457832638815,9913.43231711808,11431150.4238951
220.808346770266,3482391.14997431,4303.58962737625,0.102385726641706,0.36171830303269,0.466704202593582,-0.515209596647097,9172.29420925072,11458531.807663
223.675987637412,3483661.91913253,4301.58164887341,0.103938728445165,0.365148404560148,0.464965414747098,-0.516951319777723,8468.79632069543,11483909.468142
226.543628504558,3484950.30563351,4299.69864307961,0.105483454540068,0.368569080182752,0.463223110208731,-0.518683313649017,7797.04514448481,11507252.9640743
229.411269371705,3486256.67285685,4297.93082316768,0.107019545399985,0.371980485591068,0.461477328661694,-0.520405839098503,7153.39766607661,11528900.6941701
232.278910238851,3487584.48677006,4296.26701357453,0.108547878168473,0.37538048845807,0.459727266371418,-0.522116466812576,6556.3104188698,11548322.0635717
235.146551105997,3488930.18848015,4294.68640762627,0.110069756777363,0.378771338012693,0.457973698778752,-0.523817614108797,5993.395489324,11566212.8385989
238.014191973144,3490291.76565702,4293.17067730945,0.111586144955749,0.382154186667412,0.456217074373437,-0.525510496503717,5457.56359523731,11582912.8601903
240.88183284029,3491670.34729861,4291.705319519,0.113097868035669,0.385528158960948,0.454457128845542,-0.527194075732962,4955.51341759517,11598159.6525716
243.749473707436,3493067.07236637,4290.27700516837,0.114605677671196,0.388892417364948,0.45269360277128,-0.5288673660675,4493.24024765247,11611719.8800932
246.617114574583,3494482.797388,4288.89692640829,0.116108780567675,0.392247193577915,0.450926449558512,-0.530530783934716,4060.67304175211,11624045.5687269
249.484755441729,3495916.98895344,4287.5574010087,0.117607552720071,0.395592803730663,0.449155821774334,-0.53218466546695,3655.60208944745,11635312.609821
252.352396308875,3497368.83321703,4286.23903292065,0.119103103009189,0.3989292876753,0.44738186411428,-0.533828935130515,3282.32839026338,11645434.4614378
255.220037176021,3498837.64798769,4284.92428757683,0.120596437728897,0.402256687602785,0.44560470170466,-0.535463537415588,2944.2355679996,11654351.4371674
258.087678043168,3500324.70170182,4283.62512917194,0.122086910929197,0.405575066320337,0.443824178845977,-0.537088705143162,2631.09827942901,11662408.952062
260.955318910314,3501829.94977641,4282.33928518476,0.123574601340816,0.408884431642828,0.442040355574025,-0.538704452599484,2341.80225343554,11669700.8352
263.82295977746,3503352.64324517,4281.05507743729,0.125060098379401,0.412184774820617,0.440253399255775,-0.540310684529126,2080.1365214722,11676179.31106
266.690600644607,3504892.47623353,4279.76205315741,0.126543897341901,0.415475949037545,0.438463402358219,-0.541907179506622,1849.09784209475,11681814.7260115
269.558241511753,3506452.67930757,4278.46546750784,0.128025497387494,0.418756957461544,0.436669860995979,-0.543493032221838,1641.57753854607,11686804.8712803
272.425882378899,3508030.68972346,4277.16658881892,0.129505130924218,0.422029119950882,0.434873253516798,-0.545069643034711,1453.14682403981,11691278.728482
275.293523246046,3509622.2796997,4275.86340594453,0.130983329269983,0.425294331514361,0.433074340048708,-0.546638958666605,1281.50848131839,11695315.6960129
278.161164113192,3511227.91772096,4274.55264395437,0.132460136598867,0.428552181369566,0.431273099445257,-0.548200528866274,1128.23823303895,11698895.2620464
281.028804980338,3512855.96466626,4273.23057866704,0.133934762557698,0.431798593517166,0.429468185168226,-0.54975012766204,997.415011126765,11701931.2452215
283.896445847485,3514501,4271.89845572712,0.135407790647603,0.435036294966066,0.427660543663188,-0.551290611010587,881.135363704992,11704622.5249265
